% Time(min)      Rx(km)        Ry(km)        Rz(km)        Vx(km/s)      Vy(km/s)      Vz(km/s)
      0.0000   -1196.193608   -6863.580568      -0.013702   -1.002913206    0.176213027    7.499190087
      1.0000   -1253.785749   -6838.438816     449.618968   -0.916131709    0.661556346    7.483220827
      2.0000   -1306.052385   -6784.250547     897.336645   -0.825460396    1.144081628    7.435380675
      3.0000   -1352.771752   -6701.247168    1341.232636   -0.731289457    1.621714422    7.355878598
      4.0000   -1393.745961   -6589.783923    1779.416986   -0.634024274    2.092402920    7.245063158
      5.0000   -1428.801854   -6450.338245    2210.024793   -0.534083479    2.554127597    7.103420583
      6.0000   -1457.791738   -6283.507535    2631.224395   -0.431896948    3.004910614    6.931572091
      7.0000   -1480.593999   -6090.006386    3041.225372   -0.327903751    3.442824903    6.730270486
      8.0000   -1497.113593   -5870.663273    3438.286319   -0.222550077    3.866002878    6.500396082
      9.0000   -1507.282407   -5626.416733    3820.722360   -0.116287147    4.272644713    6.242951995
     10.0000   -1511.059502   -5358.311064    4186.912361   -0.009569131    4.661026139    5.959058868
     11.0000   -1508.431223   -5067.491568    4535.305811    0.097148912    5.029505726    5.649949082
     12.0000   -1499.411199   -4755.199379    4864.429338    0.203413063    5.376531619    5.316960518
     13.0000   -1484.040205   -4422.765896    5172.892843    0.308772525    5.700647714    4.961529936
     14.0000   -1462.385926   -4071.606870    5459.395227    0.412781551    6.000499260    4.585186026
     15.0000   -1434.542592   -3703.216169    5722.729691    0.515001304    6.274837881    4.189542197
     16.0000   -1400.630509   -3319.159258    5961.788593    0.615001655    6.522526041    3.776289157
     17.0000   -1360.795490   -2921.066428    6175.567866    0.712362895    6.742540947    3.347187338
     18.0000   -1315.208172   -2510.625813    6363.170965    0.806677378    6.933977917    2.904059203
     19.0000   -1264.063254   -2089.576209    6523.812360    0.897551078    7.096053238    2.448781482
     20.0000   -1207.578629   -1659.699747    6656.820555    0.984605074    7.228106528    1.983277371
     21.0000   -1145.994436   -1222.814434    6761.640645    1.067476945    7.329602637    1.509508700
     22.0000   -1079.572034    -780.766592    6837.836396    1.145822097    7.400133107    1.029468119
     23.0000   -1008.592889    -335.423223    6885.091862    1.219315015    7.439417213    0.545171283
     24.0000    -933.357398     111.335674    6903.212533    1.287650439    7.447302607    0.058649065
     25.0000    -854.183638     557.624816    6892.126013    1.350544469    7.423765578   -0.428060211
     26.0000    -771.406054    1001.561354    6851.882235    1.407735609    7.368910941   -0.912918513
     27.0000    -685.374083    1441.272571    6782.653216    1.458985739    7.282971560   -1.393895825
     28.0000    -596.450728    1874.903543    6684.732341    1.504081020    7.166307502   -1.868977848
     29.0000    -505.011072    2300.624734    6558.533191    1.542832739    7.019404826   -2.336173693
     30.0000    -411.440748    2716.639517    6404.587909    1.575078076    6.842873985   -2.793523544
     31.0000    -316.134363    3121.191571    6223.545105    1.600680807    6.637447839   -3.239106316
     32.0000    -219.493885    3512.572165    6016.167305    1.619531927    6.403979252   -3.671047263
     33.0000    -121.926991    3889.127269    5783.327940    1.631550199    6.143438266   -4.087525558
     34.0000     -23.845389    4249.264493    5526.007888    1.636682605    5.856908814   -4.486781801
     35.0000      74.336889    4591.459812    5245.291563    1.634904713    5.545584973   -4.867125439
     36.0000     172.205212    4914.264044    4942.362565    1.626220937    5.210766722   -5.226942060
     37.0000     269.346081    5216.309071    4618.498896    1.610664694    4.853855204   -5.564700528
     38.0000     365.348876    5496.313750    4275.067750    1.588298431    4.476347469   -5.878959916
     39.0000     459.807593    5753.089498    3913.519905    1.559213546    4.079830706   -6.168376177
     40.0000     552.322575    5985.545514    3535.383712    1.523530160    3.665975956   -6.431708511
     41.0000     642.502227    6192.693607    3142.258720    1.481396764    3.236531323   -6.667825373
     42.0000     729.964704    6373.652606    2735.808947    1.432989717    2.793314699   -6.875710053
     43.0000     814.339562    6527.652315    2317.755838    1.378512602    2.338206032   -7.054465788
     44.0000     895.269371    6654.036991    1889.870927    1.318195440    1.873139158   -7.203320341
     45.0000     972.411272    6752.268326    1453.968241    1.252293745    1.400093270   -7.321629990
     46.0000    1045.438475    6821.927901    1011.896487    1.181087453    0.921084042   -7.408882901
     47.0000    1114.041688    6862.719101     565.531052    1.104879696    0.438154489   -7.464701824
     48.0000    1177.930472    6874.468475     116.765869    1.023995457   -0.046634386   -7.488846080
     49.0000    1236.834503    6857.126534    -332.494821    0.938780088   -0.531213081   -7.481212834
     50.0000    1290.504749    6810.767968    -780.344757    0.849597729   -1.013513151   -7.441837613
     51.0000    1338.714550    6735.591301   -1224.883957    0.756829611   -1.491476768   -7.370894074
     52.0000    1381.260583    6631.917968   -1664.226977    0.660872277   -1.963066189   -7.268693030
     53.0000    1417.963735    6500.190829   -2096.511097    0.562135732   -2.426273087   -7.135680740
     54.0000    1448.669844    6340.972128   -2519.904370    0.461041526   -2.879127655   -6.972436482
     55.0000    1473.250342    6154.940921   -2932.613519    0.358020797   -3.319707429   -6.779669451
     56.0000    1491.602763    5942.889976   -3332.891622    0.253512286   -3.746145774   -6.558215008
     57.0000    1503.651144    5705.722181   -3719.045551    0.147960335   -4.156639974   -6.309030342
     58.0000    1509.346301    5444.446476   -4089.443140    0.041812888   -4.549458883   -6.033189569
     59.0000    1508.665982    5160.173345   -4442.520039   -0.064480493   -4.922950113   -5.731878352
     60.0000    1501.614912    4854.109883   -4776.786238   -0.170470586   -5.275546714   -5.406388077
     61.0000    1488.224706    4527.554490   -5090.832225   -0.275710428   -5.605773346   -5.058109649
     62.0000    1468.553687    4181.891196   -5383.334760   -0.379757192   -5.912251915   -4.688526967
     63.0000    1442.686574    3818.583674   -5653.062261   -0.482173999   -6.193706691   -4.299210135
     64.0000    1410.734080    3439.168960   -5898.879758   -0.582531678   -6.448968896   -3.891808439
     65.0000    1372.832394    3045.250908   -6119.753437   -0.680410458   -6.676980777   -3.468043176
     66.0000    1329.142568    2638.493417   -6314.754741   -0.775401586   -6.876799189   -3.029700326
     67.0000    1279.849812    2220.613463   -6483.064027   -0.867108884   -7.047598696   -2.578623151
     68.0000    1225.162693    1793.373955   -6623.973783   -0.955150227   -7.188674215   -2.116704713
     69.0000    1165.312247    1358.576438   -6736.891389   -1.039158960   -7.299443228   -1.645880349
     70.0000    1100.551015     918.053690   -6821.341428   -1.118785240   -7.379447578   -1.168120119
     71.0000    1031.151992     473.662211   -6876.967543   -1.193697318   -7.428354874   -0.685421234
     72.0000     957.407503      27.274646   -6903.533837   -1.263582752   -7.445959520   -0.199800468
     73.0000     879.628015    -419.227848   -6900.925820   -1.328149565   -7.432183377    0.286713440
     74.0000     798.140869    -863.963258   -6869.150898   -1.387127335   -7.387076066    0.772087407
     75.0000     713.288962   -1305.056381   -6808.338403   -1.440268237   -7.310814925    1.254291631
     76.0000     625.429355   -1740.646481   -6718.739171   -1.487348015   -7.203704598    1.731307257
     77.0000     534.931836   -2168.894904   -6600.724644   -1.528166898   -7.066176268    2.201134049
     78.0000     442.177423   -2587.992635   -6454.785534   -1.562550460   -6.898786503    2.661798103
     79.0000     347.556819   -2996.167783   -6281.529999   -1.590350405   -6.702215713    3.111359577
     80.0000     251.468820   -3391.692949   -6081.681376   -1.611445288   -6.477266180    3.547920429
     81.0000     154.318690   -3772.892471   -5856.075433   -1.625741156   -6.224859657    3.969632166
     82.0000      56.516490   -4138.149506   -5605.657168   -1.633172107   -5.946034490    4.374703568
     83.0000     -41.524622   -4485.912930   -5331.477139   -1.633700763   -5.641942256    4.761408364
     84.0000    -139.390105   -4814.704012   -5034.687343   -1.627318629   -5.313843882    5.128092833
     85.0000    -236.665787   -5123.122851   -4716.536631   -1.614046360   -4.963105236    5.473183280
     86.0000    -332.939610   -5409.854523   -4378.365693   -1.593933900   -4.591192161    5.795193346
     87.0000    -427.803394   -5673.674918   -4021.601601   -1.567060494   -4.199664957    6.092731095
     88.0000    -520.854589   -5913.456222   -3647.751937   -1.533534569   -3.790172297    6.364505829
     89.0000    -611.698020   -6128.172032   -3258.398528   -1.493493474   -3.364444593    6.609334552
     90.0000    -699.947611   -6316.902039   -2855.190793   -1.447103063   -2.924286818    6.826148048
     91.0000    -785.228077   -6478.836281   -2439.838751   -1.394557134   -2.471570814    7.013996480
     92.0000    -867.176583   -6613.278905   -2014.105704   -1.336076709   -2.008227116    7.172054468
     93.0000    -945.444349   -6719.651439   -1579.800626   -1.271909155   -1.536236338    7.299625584
     94.0000   -1019.698202   -6797.495524   -1138.770313   -1.202327157   -1.057620171    7.396146195
     95.0000   -1089.622062   -6846.475104    -692.891317   -1.127627532   -0.574432052    7.461188631
     96.0000   -1154.918346   -6866.378042    -244.061706   -1.048129903   -0.088747573    7.494463608
     97.0000   -1215.309299   -6857.117157     205.807287   -0.964175235    0.397345299    7.495821897
     98.0000   -1270.538223   -6818.730674     654.799701   -0.876124239    0.881756116    7.465255208
     99.0000   -1320.370614   -6751.382068    1101.003312   -0.784355675    1.362401866    7.402896269
    100.0000   -1364.595189   -6655.359329    1542.518070   -0.689264534    1.837216856    7.309018115
    101.0000   -1403.025250   -6531.071902    1977.469858   -0.591258914    2.304168217    7.184030832
    102.0000   -1435.497264   -6379.057390    2403.991889   -0.490764244    2.761236640    7.028488028
    103.0000   -1461.875986   -6199.961850    2820.286532   -0.388208887    3.206483258    6.843066326
    104.0000   -1482.050580   -5994.554002    3224.579496   -0.284034469    3.638000954    6.628579139
    105.0000   -1495.937274   -5763.713064    3615.154348   -0.178687612    4.053951687    6.385963554
    106.0000   -1503.479230   -5508.426435    3990.354524   -0.072619097    4.452568797    6.116277104
    107.0000   -1504.646728   -5229.785181    4348.590387    0.033718198    4.832164571    5.820692257
    108.0000   -1499.437235   -4928.979084    4688.345948    0.139871344    5.191137278    5.500490405
    109.0000   -1487.875343   -4607.291286    5008.185212    0.245389356    5.527977657    5.157055454
    110.0000   -1470.012597   -4266.092560    5306.758123    0.349825146    5.841274827    4.791867038
    111.0000   -1445.927202   -3906.835244    5582.806099    0.452737417    6.129721628    4.406493449
    112.0000   -1415.723622   -3531.046873    5835.167134    0.553692489    6.392119387    4.002584324
    113.0000   -1379.532068   -3140.323542    6062.780450    0.652266049    6.627382127    3.581863145
    114.0000   -1337.507888   -2736.323028    6264.690703    0.748044831    6.834540224    3.146119612
    115.0000   -1289.830853   -2320.757717    6440.051723    0.840628219    7.012743541    2.697201911
    116.0000   -1236.704354   -1895.387351    6588.129791    0.929629758    7.161264057    2.237008930
    117.0000   -1178.354508   -1462.011637    6708.306445    1.014678604    7.279498018    1.767482446
    118.0000   -1115.029181   -1022.462733    6800.080820    1.095420885    7.366967633    1.290599296
    119.0000   -1046.996930    -578.597659    6863.071516    1.171520987    7.423322346    0.808363564
    120.0000    -974.545869    -132.290628    6897.018001    1.242662772    7.448339691    0.322798781
    121.0000    -897.982470     314.574655    6901.781545    1.308550724    7.441925762   -0.164059856
    122.0000    -817.630290     760.112705    6877.345684    1.368911022    7.404115306   -0.650173235
    123.0000    -733.828640    1202.443977    6823.816229    1.423492552    7.335071443   -1.133506065
    124.0000    -646.931192    1639.702547    6741.420799    1.472067849    7.235085026   -1.612034587
    125.0000    -557.304535    2070.043750    6630.507905    1.514433979    7.104573631   -2.083754273
    126.0000    -465.326679    2491.651744    6491.545561    1.550413346    6.944080167   -2.546687503
    127.0000    -371.385512    2902.746977    6325.119441    1.579854434    6.754271110   -2.998891229
    128.0000    -275.877212    3301.593540    6131.930579    1.602632480    6.535934330   -3.438464607
    129.0000    -179.204625    3686.506378    5912.792601    1.618650061    6.289976492   -3.863556601
    130.0000     -81.775611    4055.858324    5668.628518    1.627837607    6.017420030   -4.272373526
    131.0000      15.998644    4408.086949    5400.467052    1.630153818    5.719399652   -4.663186526
    132.0000     113.705333    4741.701178    5109.438532    1.625585987    5.397158368   -5.034338936
    133.0000     210.931748    5055.287657    4796.770335    1.614150221    5.052043026   -5.384253515
    134.0000     307.267019    5347.516840    4463.781918    1.595891540    4.685499335   -5.711439489
    135.0000     402.303843    5617.148754    4111.879414    1.570883872    4.299066381   -6.014499375
    136.0000     495.640219    5863.038426    3742.549842    1.539229906    3.894370615   -6.292135522
    137.0000     586.881162    6084.140933    3357.354928    1.501060819    3.473119339   -6.543156316
    138.0000     675.640406    6279.516042    2957.924561    1.456535861    3.037093691   -6.766482009
    139.0000     761.542067    6448.332416    2545.949923    1.405841802    2.588141152   -6.961150084
    140.0000     844.222277    6589.871362    2123.176304    1.349192226    2.128167618   -7.126320138
    141.0000     923.330769    6703.530084    1691.395641    1.286826686    1.659129052   -7.261278195
    142.0000     998.532400    6788.824427    1252.438818    1.219009711    1.183022786   -7.365440420
    143.0000    1069.508623    6845.391093     808.167768    1.146029672    0.701878521   -7.438356189
    144.0000    1135.958877    6872.989300     360.467397    1.068197512    0.217749074   -7.479710465
    145.0000    1197.601899    6871.501891     -88.762596    0.985845348   -0.267299046   -7.489325464
    146.0000    1254.176949    6840.935871    -537.615989    0.899324955   -0.751195169   -7.467161580
    147.0000    1305.444945    6781.422364    -984.188338    0.809006137   -1.231874037   -7.413317564
    148.0000    1351.189489    6693.216006   -1426.585257    0.715275007   -1.707285329   -7.328029954
    149.0000    1391.217793    6576.693766   -1862.930658    0.618532181   -2.175403081   -7.211671759
    150.0000    1425.361494    6432.353204   -2291.374873    0.519190906   -2.634234927   -7.064750421
    151.0000    1453.477353    6260.810187   -2710.102645    0.417675133   -3.081831081   -6.887905071
    152.0000    1475.447841    6062.796073   -3117.340929    0.314417559   -3.516293020   -6.681903130
    153.0000    1491.181601    5839.154381   -3511.366470    0.209857633   -3.935781794   -6.447636280
    154.0000    1500.613798    5590.836984   -3890.513124    0.104439573   -4.338525929   -6.186115863
    155.0000    1503.706338    5318.899831   -4253.178890   -0.001389628   -4.722828870   -5.898467752
    156.0000    1500.447985    5024.498244   -4597.832608   -0.107182161   -5.087075942   -5.585926760
    157.0000    1490.854345    4708.881808   -4923.020326   -0.212491344   -5.429740803   -5.249830639
    158.0000    1474.967745    4373.388892   -5227.371284   -0.316873506   -5.749391379   -4.891613715
    159.0000    1452.856993    4019.440829   -5509.603510   -0.419889836   -6.044695259   -4.512800239
    160.0000    1424.617040    3648.535786   -5768.529012   -0.521108166   -6.314424575   -4.114997481
    161.0000    1390.368521    3262.242362   -6003.058548   -0.620104693   -6.557460356   -3.699888635
    162.0000    1350.257209    2862.192931   -6212.205964   -0.716465634   -6.772796376   -3.269225571
    163.0000    1304.453365    2450.076778   -6395.092098   -0.809788814   -6.959542515   -2.824821465
    164.0000    1253.150995    2027.633043   -6550.948232   -0.899685182   -7.116927653   -2.368543360
    165.0000    1196.567015    1596.643501   -6679.119101   -0.985780258   -7.244302109   -1.902304658
    166.0000    1134.940345    1158.925218   -6779.065450   -1.067715516   -7.341139669   -1.428057584
    167.0000    1068.530899     716.323085   -6850.366139   -1.145149694   -7.407039196   -0.947785620
    168.0000     997.618524     270.702283   -6892.719785   -1.217760041   -7.441725866   -0.463495924
    169.0000     922.501844    -176.059335   -6905.945959   -1.285243509   -7.445052026    0.022788264
    170.0000     843.497046    -622.078883   -6889.985924   -1.347317875   -7.416997690    0.509035227
    171.0000     760.936602   -1065.476112   -6844.902911   -1.403722810   -7.357670692    0.993212398
    172.0000     675.167920   -1504.381077   -6770.881941   -1.454220889   -7.267306465    1.473294001
    173.0000     586.551943   -1936.941774   -6668.229189   -1.498598536   -7.146267476    1.947268723
    174.0000     495.461688   -2361.331738   -6537.370883   -1.536666923   -6.995042282    2.413147403
    175.0000     402.280743   -2775.757572   -6378.851745   -1.568262787   -6.814244198    2.868970756
    176.0000     307.401700   -3178.466380   -6193.332962   -1.593249197   -6.604609566    3.312817103
    177.0000     211.224564   -3567.753085   -5981.589701   -1.611516237   -6.366995584    3.742810123
    178.0000     114.155105   -3941.967606   -5744.508152   -1.622981613   -6.102377697    4.157126588
    179.0000      16.603191   -4299.521863   -5483.082113   -1.627591182   -5.811846493    4.554004069
    180.0000     -81.018919   -4638.896575   -5198.409110   -1.625319370   -5.496604111    4.931748585
    181.0000    -178.298296   -4958.647837   -4891.686063   -1.616169501   -5.157960118    5.288742149
    182.0000    -274.823083   -5257.413424   -4564.204506   -1.600174010   -4.797326846    5.623450175
    183.0000    -370.184246   -5533.918805   -4217.345362   -1.577394528   -4.416214175    5.934428689
    184.0000    -463.977324   -5786.982824   -3852.573301   -1.547921846   -4.016223752    6.220331301
    185.0000    -555.804172   -6015.523020   -3471.430678   -1.511875735   -3.599042657    6.479915867
    186.0000    -645.274696   -6218.560548   -3075.531093   -1.469404624   -3.166436516    6.712050779
    187.0000    -732.008553   -6395.224670   -2666.552576   -1.420685130   -2.720242081    6.915720833
    188.0000    -815.636828   -6544.756792   -2246.230444   -1.365921426   -2.262359315    7.090032598
    189.0000    -895.803664   -6666.514004   -1816.349844   -1.305344463   -1.794743006    7.234219231
    190.0000    -972.167842   -6759.972108   -1378.738032   -1.239211032   -1.319393971    7.347644676
    191.0000   -1044.404296   -6824.728108    -935.256413   -1.167802673   -0.838349889    7.429807210
    192.0000   -1112.205567   -6860.502141    -487.792393   -1.091424436   -0.353675848    7.480342265
