% Vallado SGP4 Result (TEME Frame)
% Time(min)      Rx(km)        Ry(km)        Rz(km)        Vx(km/s)      Vy(km/s)      Vz(km/s)
      0.0000   -1195.478290   -6860.523833       0.004247   -1.002877154    0.178325283    7.502580838
      1.0000   -1253.066362   -6835.241961     449.839999   -0.916026950    0.664115585    7.486580987
      2.0000   -1305.324518   -6780.886414     897.757120   -0.825277644    1.147096351    7.438649710
      3.0000   -1352.030468   -6697.688334    1341.845217   -0.731020531    1.625184939    7.358994087
      4.0000   -1392.985867   -6586.003200    1780.210551   -0.633662291    2.096321126    7.247961898
      5.0000   -1428.017187   -6446.309188    2210.984426   -0.533623019    2.558476901    7.106039730
      6.0000   -1456.976456   -6279.204954    2632.331442   -0.431334196    3.009666024    6.933850301
      7.0000   -1479.741883   -6085.406843    3042.457565   -0.327236610    3.447953257    6.732149041
      8.0000   -1496.218351   -5865.745564    3439.617970   -0.221778250    3.871463226    6.501819981
      9.0000   -1506.337786   -5621.162341    3822.124616   -0.115412189    4.278388837    6.243870988
     10.0000   -1510.059397   -5352.704575    4188.353523   -0.008594466    4.666999205    5.959428422
     11.0000   -1507.369794   -5061.521046    4536.751701    0.098218003    5.035647053    5.649731250
     12.0000   -1498.282977   -4748.856690    4865.843723    0.204569490    5.382775559    5.316124707
     13.0000   -1482.840201   -4416.046976    5174.237895    0.310007469    5.706924616    4.960053554
     14.0000   -1461.109731   -4064.511935    5460.632024    0.414084568    6.006736504    4.583055004
     15.0000   -1433.186469   -3695.749856    5723.818737    0.516360468    6.280960980    4.186751369
     16.0000   -1399.191480   -3311.330704    5962.690364    0.616403715    6.528459767    3.772842502
     17.0000   -1359.271405   -2912.889277    6176.243361    0.713793462    6.748210481    3.343098072
     18.0000   -1313.597779   -2502.118154    6363.582258    0.808121131    6.939310000    2.899349727
     19.0000   -1262.366239   -2080.760450    6523.923146    0.898991986    7.100977299    2.443483185
     20.0000   -1205.795656   -1650.602419    6656.596679    0.986026628    7.232555777    1.977430287
     21.0000   -1144.127170   -1213.465929    6761.050603    1.068862404    7.333515110    1.503161037
     22.0000   -1077.623142    -771.200845    6836.851809    1.147154738    7.403452633    1.022675648
     23.0000   -1006.566036    -325.677341    6883.687907    1.220578382    7.442094303    0.537996621
     24.0000    -931.257222     121.221841    6901.368327    1.288828589    7.449295243    0.051160839
     25.0000    -852.015710     567.609143    6889.824945    1.351622220    7.425039892   -0.435788285
     26.0000    -769.176828    1011.599944    6849.112242    1.408698768    7.369441780   -0.920808641
     27.0000    -683.090830    1451.320294    6779.406995    1.459821322    7.282742912   -1.401867206
     28.0000    -594.121455    1884.914588    6681.007492    1.504777456    7.165312800   -1.876947801
     29.0000    -502.644435    2310.553186    6554.332302    1.543380047    7.017647100   -2.344058812
     30.0000    -409.045950    2726.439926    6399.918559    1.575468032    6.840365878   -2.801240875
     31.0000    -313.721046    3130.819530    6218.419805    1.600907073    6.634211474   -3.246574526
     32.0000    -217.072012    3521.984868    6010.603368    1.619590162    6.400045963   -3.678187801
     33.0000    -119.506727    3898.284053    5777.347280    1.631438132    6.138848178   -4.094263768
     34.0000     -21.436971    4258.127350    5519.636755    1.636400084    5.851710299   -4.493047985
     35.0000      76.723277    4599.993862    5238.560220    1.634453720    5.539833973   -4.872855852
     36.0000     174.559566    4922.437970    4935.304899    1.625605569    5.204525957   -5.232079812
     37.0000     271.658706    5224.095499    4611.151987    1.609891111    4.847193270   -5.569196389
     38.0000     367.610502    5503.689574    4267.471391    1.587374779    4.469337849   -5.882773002
     39.0000     462.009498    5760.036141    3905.716082    1.558149836    4.072550697   -6.171474507
     40.0000     554.456688    5992.049128    3527.416057    1.522338133    3.658505545   -6.434069430
     41.0000     644.561230    6198.745199    3134.171940    1.480089714    3.228952011   -6.669435824
     42.0000     731.942119    6379.248093    2727.648247    1.431582302    2.785708309   -6.876566705
     43.0000     816.229826    6532.792509    2309.566335    1.377020626    2.330653509   -7.054575001
     44.0000     897.067900    6658.727515    1881.697068    1.316635617    1.865719395   -7.202697983
     45.0000     974.114507    6756.519451    1445.853244    1.250683454    1.392881957   -7.320301104
     46.0000    1047.043916    6825.754325    1003.881801    1.179444476    0.914152585   -7.406881221
     47.0000    1115.547910    6866.139658     557.655854    1.103221958    0.431568997   -7.462069153
     48.0000    1179.337124    6877.505789     109.066597    1.022340758   -0.052814016   -7.485631549
     49.0000    1238.142295    6859.806620    -339.984882    0.937145845   -0.536933974   -7.477472038
     50.0000    1291.715419    6813.119787    -787.595835    0.848000717   -1.018730141   -7.437631654
     51.0000    1339.830820    6737.646281   -1231.870094    0.755285728   -1.496152949   -7.366288522
     52.0000    1382.286099    6633.709490   -1670.926264    0.659396317   -1.967173325   -7.263756821
     53.0000    1418.902993    6501.753698   -2102.905840    0.560741181   -2.429791871   -7.130485032
     54.0000    1449.528106    6342.342032   -2525.981191    0.459740382   -2.882047820   -6.967053486
     55.0000    1474.033542    6156.153887   -2938.363381    0.356823415   -3.322027703   -6.774171264
     56.0000    1492.317404    5943.981835   -3338.309784    0.252427253   -3.747873683   -6.552672466
     57.0000    1504.304188    5706.728046   -3724.131459    0.146994378   -4.157791503   -6.303511905
     58.0000    1509.945055    5445.400253   -4094.200250    0.040970811   -4.550058001   -6.027760271
     59.0000    1509.217983    5161.107267   -4446.955582   -0.065195840   -4.923028164   -5.726598819
     60.0000    1502.127807    4855.054093   -4780.910925   -0.171058302   -5.275141701   -5.401313642
     61.0000    1488.706138    4528.536663   -5094.659901   -0.276171525   -5.604929106   -5.053289568
     62.0000    1469.011179    4182.936218   -5386.882023   -0.380094528   -5.911017215   -4.684003756
     63.0000    1443.127426    3819.713380   -5656.348036   -0.482392184   -6.192134252   -4.295019026
     64.0000    1411.165263    3440.401924   -5901.924849   -0.582636949   -6.447114361   -3.887976978
     65.0000    1373.260459    3046.602303   -6122.580055   -0.680410527   -6.674901656   -3.464590951
     66.0000    1329.573563    2639.974940   -6317.386023   -0.775305473   -6.874553780   -3.026638846
     67.0000    1280.289208    2222.233319   -6485.523553   -0.866926724   -7.045245012   -2.575955859
     68.0000    1225.615325    1795.136904   -6626.285097   -0.954893064   -7.186268929   -2.114427138
     69.0000    1165.782265    1360.483912   -6739.077531   -1.038838530   -7.297040661   -1.643980400
     70.0000    1101.041851     920.103960   -6823.424492   -1.118413744   -7.377098738   -1.166578501
     71.0000    1031.666337     475.850617   -6878.968264   -1.193287188   -7.426106562   -0.684211989
     72.0000     957.947302      29.593868   -6905.471207   -1.263146421   -7.443853526   -0.198891625
     73.0000     880.194473    -416.787462   -6902.816754   -1.327699236   -7.430255762    0.287359116
     74.0000     798.734472    -861.413333   -6871.009944   -1.386674760   -7.385356564    0.772511571
     75.0000     713.909508   -1302.410124   -6810.177503   -1.439824500   -7.309326449    1.254539455
     76.0000     626.076006   -1737.918257   -6720.567478   -1.486923334   -7.202462883    1.731426457
     77.0000     535.603168   -2166.099801   -6602.548403   -1.527770444   -7.065189635    2.201173876
     78.0000     442.871498   -2585.146018   -6456.608017   -1.562190193   -6.898055764    2.661808308
     79.0000     348.271259   -2993.284843   -6283.351508   -1.590032933   -6.701734207    3.111389367
     80.0000     252.200896   -3388.788260   -6083.499304   -1.611175752   -6.477019954    3.548017435
     81.0000     155.065407   -3769.979562   -5857.884389   -1.625523142   -6.224827775    3.969841437
     82.0000      57.274685   -4135.240457   -5607.449158   -1.633007587   -5.946189473    4.375066609
     83.0000     -40.758181   -4483.017989   -5333.241807   -1.633590061   -5.642250650    4.761962238
     84.0000    -138.618624   -4811.831265   -5036.412258   -1.627260428   -5.314266938    5.128869341
     85.0000    -235.892343   -5120.277918   -4718.207628   -1.614037731   -4.963599693    5.474208235
     86.0000    -332.167060   -5407.040317   -4379.967248   -1.593970363   -4.591711122    5.796485950
     87.0000    -427.034283   -5670.891449   -4023.117244   -1.567136112   -4.200158842    6.094303443
     88.0000    -520.091066   -5910.700470   -3649.164689   -1.533642067   -3.790589856    6.366362539
     89.0000    -610.941759   -6125.437874   -3259.691359   -1.493624387   -3.364733959    6.611472535
     90.0000    -699.199748   -6314.180242   -2856.347087   -1.447247906   -2.924396587    6.828556421
     91.0000    -784.489152   -6476.114563   -2440.842776   -1.394705594   -2.471451126    7.016656629
     92.0000    -866.446496   -6610.542058   -2014.943068   -1.336217854   -2.007830720    7.174940260
     93.0000    -944.722330   -6716.881517   -1580.458725   -1.272031660   -1.535519624    7.302703718
     94.0000   -1018.982793   -6794.672090   -1139.238744   -1.202419533   -1.056544139    7.399376706
     95.0000   -1088.911115   -6843.575536    -693.162263   -1.127678366   -0.572963212    7.464525514
     96.0000   -1154.209034   -6863.377888    -244.130279   -1.048128100   -0.086858749    7.497855573
     97.0000   -1214.598143   -6853.990538     205.942755   -0.964110249    0.399674272    7.499213230
     98.0000   -1269.821131   -6815.450720     655.137418   -0.875986307    0.884537815    7.468586724
     99.0000   -1319.642935   -6747.921395    1101.537848   -0.784136025    1.365640846    7.406106344
    100.0000   -1363.851778   -6651.690528    1543.240246   -0.688955591    1.840909347    7.312043773
    101.0000   -1402.260104   -6527.169769    1978.361320   -0.590855711    2.308296217    7.186810619
    102.0000   -1434.705383   -6374.892547    2405.046623   -0.490259626    2.765790963    7.030956157
    103.0000   -1461.050805   -6195.511586    2821.478720   -0.387601069    3.211429121    6.845164309
    104.0000   -1481.185849   -5989.795874    3225.885163   -0.283322180    3.643301331    6.630249904
    105.0000   -1495.026723   -5758.627088    3616.546215   -0.177871401    4.059561996    6.387154260
    106.0000   -1502.516676   -5502.995523    3991.802290   -0.071701374    4.458437485    6.116940143
    107.0000   -1503.626191   -5223.995537    4350.061076    0.034733167    4.838233827    5.820786172
    108.0000   -1498.353047   -4922.820558    4689.804306    0.140977458    5.197343856    5.499980720
    109.0000   -1486.722257   -4600.757669    5009.594147    0.246578746    5.534253799    5.155915376
    110.0000   -1468.785889   -4259.181826    5308.079187    0.351088265    5.847549265    4.790078049
    111.0000   -1444.622772   -3899.549725    5584.000000    0.454063162    6.135920653    4.404045757
    112.0000   -1414.338078   -3523.393372    5836.194267    0.555068347    6.398167966    3.999477179
    113.0000   -1378.062809   -3132.313376    6063.601450    0.653678272    6.633205042    3.578105008
    114.0000   -1335.953171   -2727.972003    6265.266997    0.749478631    6.840063227    3.141728175
    115.0000   -1288.189849   -2312.086035    6440.346079    0.842067976    7.017894495    2.692203975
    116.0000   -1234.977189   -1886.419446    6588.106857    0.931059254    7.165974051    2.231440138
    117.0000   -1176.542296   -1452.775950    6707.933267    1.016081254    7.283702437    1.761386872
    118.0000   -1113.134034   -1012.991424    6799.327330    1.096779988    7.370607169    1.284028909
    119.0000   -1045.021958    -568.926256    6861.910986    1.172819973    7.426343928    0.801377564
    120.0000    -972.495168    -122.457632    6895.427453    1.243885452    7.450697327    0.315462819
    121.0000    -895.861088     324.528218    6899.742108    1.309681533    7.443581280   -0.171674553
    122.0000    -815.444185     770.143774    6874.842902    1.369935259    7.405038973   -0.657990834
    123.0000    -731.584618    1212.507975    6820.840304    1.424396603    7.335242468   -1.141447168
    124.0000    -644.636839    1649.753929    6737.966773    1.472839402    7.234491925   -1.620017330
    125.0000    -554.968133    2080.036566    6626.575772    1.515062211    7.103214458   -2.091695470
    126.0000    -462.957111    2501.540214    6487.140314    1.550889098    6.941962602   -2.554503815
    127.0000    -368.992155    2912.486068    6320.251045    1.580170359    6.751412402   -3.006500337
    128.0000    -273.469830    3311.139532    6126.613876    1.602783164    6.532361094   -3.445786381
    129.0000    -176.793247    3695.817418    5907.047148    1.618632115    6.285724373   -3.870514236
    130.0000     -79.370407    4064.894954    5662.478350    1.627649731    6.012533217   -4.278894640
    131.0000      18.387486    4416.812598    5393.940393    1.629796833    5.713930269   -4.669204184
    132.0000     116.067737    4750.082621    5102.567435    1.625062834    5.391165741   -5.039792608
    133.0000     213.257878    5063.295421    4789.590279    1.613465927    5.045592835   -5.389089927
    134.0000     309.547398    5355.125560    4456.331342    1.595053157    4.678662669   -5.715613377
    135.0000     404.529476    5624.337468    4104.199226    1.569900376    4.291918704   -6.017974105
    136.0000     497.802702    5869.790807    3734.682879    1.538112073    3.886990671   -6.294883585
    137.0000     588.972789    6090.445449    3349.345401    1.499821069    3.465587993   -6.545159680
    138.0000     677.654261    6285.366054    2949.817477    1.455188079    3.029492749   -6.767732317
    139.0000     763.472108    6453.726198    2537.790503    1.404401132    2.580552162   -6.961648707
    140.0000     846.063402    6594.812050    2115.009397    1.347674848    2.120670675   -7.126078068
    141.0000     925.078873    6708.025554    1683.265154    1.285249576    1.651801637   -7.260315786
    142.0000    1000.184418    6792.887105    1244.387166    1.217390387    1.175938646   -7.363786983
    143.0000    1071.062553    6849.037698     800.235347    1.144385935    0.695106618   -7.436049438
    144.0000    1137.413787    6876.240526     352.692102    1.066547182    0.211352616   -7.476795839
    145.0000    1198.957923    6874.382037     -96.345816    0.984206003   -0.273263468   -7.485855321
    146.0000    1255.435266    6843.472415    -544.975520    0.897713671   -0.756678336   -7.463194287
    147.0000    1306.607738    6783.645502    -991.296227    0.807439242   -1.236834723   -7.408916500
    148.0000    1352.259893    6695.158157   -1433.417491    0.713767848   -1.711690784   -7.323262436
    149.0000    1392.199832    6578.389045   -1869.467357    0.617098910   -2.179229373   -7.206607917
    150.0000    1426.260001    6433.836892   -2297.600429    0.517844287   -2.637467121   -7.059462038
    151.0000    1454.297883    6262.118181   -2716.005785    0.416426375   -3.084463282   -6.882464419
    152.0000    1476.196569    6063.964350   -3122.914705    0.313276173   -3.518328249   -6.676381804
    153.0000    1491.865221    5840.218468   -3516.608185    0.208831325   -3.937231726   -6.442104065
    154.0000    1501.239406    5591.831448   -3895.424190    0.103534162   -4.339410481   -6.180639649
    155.0000    1504.281325    5319.857802   -4257.764616   -0.002170255   -4.723175664   -5.893110515
    156.0000    1500.979913    5025.450971   -4602.101941   -0.107836064   -5.086919640   -5.580746629
    157.0000    1491.350834    4709.858261   -4926.985530   -0.213018510   -5.429122338   -5.244880052
    158.0000    1475.436356    4374.415413   -5231.047574   -0.317275802   -5.748357087   -4.886938697
    159.0000    1453.305122    4020.540835   -5513.008649   -0.420170927   -6.043295939   -4.508439794
    160.0000    1425.051808    3649.729535   -5771.682874   -0.521273404   -6.312714484   -4.110983119
    161.0000    1390.796681    3263.546776   -6005.982656   -0.620160986   -6.555496163   -3.696244031
    162.0000    1350.685057    2863.621488   -6214.923015   -0.716421282   -6.770636091   -3.265966365
    163.0000    1304.886658    2451.639464   -6397.625477   -0.809653334   -6.957244413   -2.821955209
    164.0000    1253.594888    2029.336368   -6553.321531   -0.899469108   -7.114549204   -2.366069599
    165.0000    1197.026008    1598.490582   -6681.355646   -0.985494931   -7.241898949   -1.900215152
    166.0000    1135.418236    1160.915918   -6781.187845   -1.067372860   -7.338764601   -1.426336661
    167.0000    1069.030761     718.454213   -6852.395834   -1.144761989   -7.404741266   -0.946410654
    168.0000     998.142688     272.967844   -6894.676678   -1.217339692   -7.439549509   -0.462437933
    169.0000     923.051898    -173.667839   -6907.848040   -1.284802814   -7.443036302    0.023563919
    170.0000     844.073852    -619.572113   -6891.848955   -1.346868799   -7.415175627    0.509568045
    171.0000     761.540318   -1062.866513   -6846.740164   -1.403276768   -7.356068730    0.993545866
    172.0000     675.798041   -1501.682468   -6772.703986   -1.453788537   -7.265944035    1.473474650
    173.0000     587.207351   -1934.168924   -6670.043743   -1.498189584   -7.145156697    1.947345140
    174.0000     496.140719   -2358.499919   -6539.182715   -1.536289956   -6.994187795    2.413169204
    175.0000     402.981250   -2772.882112   -6380.662645   -1.567925119   -6.813643136    2.868987545
    176.0000     308.121141   -3175.562213   -6195.141773   -1.592956736   -6.604251658    3.312877434
    177.0000     211.960084   -3564.834319   -5983.392412   -1.611273388   -6.366863402    3.742960475
    178.0000     114.903632   -3939.047099   -5746.298050   -1.622791202   -6.102447025    4.157410381
    179.0000      17.361530   -4296.610833   -5484.849993   -1.627454406   -5.812086838    4.554460732
    180.0000     -80.253988   -4636.004242   -5200.143540   -1.625235786   -5.496979319    4.932412692
    181.0000    -177.529917   -4955.781099   -4893.373699   -1.616137042   -5.158429110    5.289642643
    182.0000    -274.054232   -5254.576591   -4565.830449   -1.600189024   -4.797844448    5.624609691
    183.0000    -369.417633   -5531.113374   -4218.893553   -1.577451861   -4.416732032    5.935862995
    184.0000    -463.215308   -5784.207321   -3854.026946   -1.548014944   -4.016691314    6.222048859
    185.0000    -555.048682   -6012.772892   -3472.772699   -1.511996776   -3.599408213    6.481917528
    186.0000    -644.527156   -6215.828128   -3076.744586   -1.469544678   -3.166648264    6.714329629
    187.0000    -731.269823   -6392.499201   -2667.621285   -1.420834335   -2.720249210    6.918262175
    188.0000    -814.907151   -6542.024518   -2247.139221   -1.366069192   -2.262113081    7.092814086
    189.0000    -895.082632   -6663.758325   -1817.085105   -1.305479685   -1.794197785    7.237211152
    190.0000    -971.454366   -6757.173798   -1379.288186   -1.239322318   -1.318508261    7.350810381
    191.0000   -1043.696601   -6821.865593    -935.612266   -1.167878580   -0.837087249    7.433103669
