% Vallado SGP4 Result (TEME Frame)
% Time(min)      Rx(km)        Ry(km)        Rz(km)        Vx(km/s)      Vy(km/s)      Vz(km/s)
      0.0000   -1196.680260   -6866.368126      -0.007677   -1.002709306    0.176180559    7.497666175
      1.0000   -1254.262289   -6841.240158     449.533997   -0.915999525    0.661129940    7.481719218
      2.0000   -1306.523280   -6787.089172     897.163377   -0.825405231    1.143266519    7.433946654
      3.0000   -1353.241762   -6704.146137    1340.976473   -0.731315803    1.620520060    7.354556897
      4.0000   -1394.220090   -6592.765604    1779.085986   -0.634135776    2.090842893    7.243897586
      5.0000   -1429.285298   -6453.424069    2209.629609   -0.534282902    2.552219531    7.102453669
      6.0000   -1458.289834   -6286.717757    2630.778182   -0.432186153    3.002676036    6.930844725
      7.0000   -1481.112167   -6093.359857    3040.743682   -0.328283679    3.440289079    6.729821586
      8.0000   -1497.657280   -5874.177219    3437.786970   -0.223020734    3.863194622    6.500262268
      9.0000   -1507.857035   -5630.106553    3820.225293   -0.116847604    4.269596168    6.243167287
     10.0000   -1511.670407   -5362.190132    4186.439473   -0.010217524    4.657772538    5.959654402
     11.0000   -1509.083602   -5071.571059    4534.880772    0.096415369    5.026085132    5.650952847
     12.0000   -1500.110055   -4759.488106    4864.077397    0.202598066    5.372984648    5.318397120
     13.0000   -1484.790292   -4427.270165    5172.640621    0.307880654    5.697017237    4.963420384
     14.0000   -1463.191698   -4076.330356    5459.270490    0.411818244    5.996830093    4.587547542
     15.0000   -1435.408150   -3708.159806    5722.761122    0.513972824    6.271176469    4.192388055
     16.0000   -1401.559557   -3324.321153    5962.005549    0.613915050    6.518920126    3.779628546
     17.0000   -1361.791284   -2926.441796    6176.000130    0.711225955    6.739039229    3.351025251
     18.0000   -1316.273483   -2516.206923    6363.848492    0.805498588    6.930629718    2.908396351
     19.0000   -1265.200321   -2095.352362    6524.765016    0.896339565    7.092908151    2.453614239
     20.0000   -1208.789126   -1665.657270    6658.077860    0.983370550    7.225214072    1.988597734
     21.0000   -1147.279441   -1228.936692    6763.231505    1.066229650    7.327011911    1.515304289
     22.0000   -1080.931993    -787.034026    6839.788844    1.144572735    7.397892440    1.035722186
     23.0000   -1010.027595    -341.813407    6887.432797    1.218074690    7.437573823    0.551862757
     24.0000    -934.865967     104.847958    6905.967459    1.286430583    7.445902257    0.065752616
     25.0000    -855.764492     551.067480    6895.318791    1.349356776    7.422852241   -0.420574082
     26.0000    -773.056907     994.964885    6855.534833    1.406591960    7.368526469   -0.905083360
     27.0000    -687.091935    1434.669897    6786.785470    1.457898125    7.283155358   -1.385749121
     28.0000    -598.231855    1868.329873    6689.361726    1.503061468    7.167096216   -1.860560824
     29.0000    -506.851030    2294.117389    6563.674599    1.541893230    7.020832032   -2.327531147
     30.0000    -413.334378    2710.237728    6410.253443    1.574230468    6.844969899   -2.784703641
     31.0000    -318.075800    3114.936278    6229.743882    1.599936752    6.640239030   -3.230160344
     32.0000    -221.476573    3506.505784    6022.905278    1.618902792    6.407488379   -3.662029384
     33.0000    -123.943704    3883.293453    5790.607733    1.631046981    6.147683821   -4.078492524
     34.0000     -25.888253    4243.707873    5533.828650    1.636315850    5.861904894   -4.477792651
     35.0000      72.276366    4586.225727    5253.648839    1.634684436    5.551341068   -4.858241172
     36.0000     170.136104    4909.398260    4951.248191    1.626156541    5.217287526   -5.218225292
     37.0000     267.278006    5211.857488    4627.900910    1.610764889    4.861140451   -5.556215124
     38.0000     363.291951    5492.322098    4284.970333    1.588571164    4.484391798   -5.870770604
     39.0000     457.772388    5749.603032    3923.903337    1.559665922    4.088623557   -6.160548149
     40.0000     550.320060    5982.608696    3546.224357    1.524168374    3.675501493   -6.424307010
     41.0000     640.543713    6190.349791    3153.529037    1.482226037    3.246768395   -6.660915265
     42.0000     728.061786    6371.943715    2747.477526    1.434014235    2.804236837   -6.869355395
     43.0000     812.504053    6526.618526    2329.787461    1.379735462    2.349781472   -7.048729391
     44.0000     893.513236    6653.716418    1902.226654    1.319618599    1.885330918   -7.198263326
     45.0000     970.746557    6752.696711    1466.605528    1.253917983    1.412859249   -7.317311353
     46.0000    1043.877239    6823.138308    1024.769325    1.182912333    0.934377163   -7.405359081
     47.0000    1112.595926    6864.741625     578.590132    1.106903541    0.451922880   -7.462026275
     48.0000    1176.612039    6877.329962     129.958775    1.026215329   -0.032447179   -7.487068868
     49.0000    1235.655041    6860.850310    -319.223397    0.941191781   -0.516667842   -7.480380239
     50.0000    1289.475609    6815.373588    -767.052777    0.852195762   -0.998674714   -7.441991754
     51.0000    1337.846716    6741.094319   -1211.631776    0.759607238   -1.476413701   -7.372072563
     52.0000    1380.564597    6638.329719   -1651.077066    0.663821500   -1.947850457   -7.270928645
     53.0000    1417.449622    6507.518237   -2083.527737    0.565247326   -2.410979679   -7.139001126
     54.0000    1448.347041    6349.217538   -2507.153343    0.464305068   -2.863834201   -6.976863888
     55.0000    1473.127622    6164.101950   -2920.161775    0.361424706   -3.304493790   -6.785220494
     56.0000    1491.688174    5952.959394   -3320.806931    0.257043868   -3.731093617   -6.564900474
     57.0000    1503.951939    5716.687813   -3707.396154    0.151605837   -4.141832336   -6.316855015
     58.0000    1509.868877    5456.291137   -4078.297379    0.045557557   -4.534979725   -6.042152102
     59.0000    1509.415824    5172.874793   -4431.945991   -0.060652344   -4.908883866   -5.741971165
     60.0000    1502.596535    4867.640811   -4766.851336   -0.166575509   -5.261977826   -5.417597296
     61.0000    1489.441611    4541.882532   -5081.602878   -0.271765767   -5.592785820   -5.070415072
     62.0000    1470.008310    4196.978971   -5374.875979   -0.375780997   -5.899928856   -4.701902069
     63.0000    1444.380250    3834.388855   -5645.437274   -0.478184950   -6.182129856   -4.313622097
     64.0000    1412.667006    3455.644364   -5892.149637   -0.578548996   -6.438218240   -3.907218215
     65.0000    1375.003600    3062.344619   -6113.976727   -0.676453813   -6.667134020   -3.484405583
     66.0000    1331.549893    2656.148935   -6309.987094   -0.771491012   -6.867931381   -3.046964168
     67.0000    1282.489883    2238.769877   -6479.357847   -0.863264679   -7.039781795   -2.596731366
     68.0000    1228.030915    1811.966135   -6621.377879   -0.951392863   -7.181976673   -2.135594546
     69.0000    1168.402793    1377.535266   -6735.450638   -1.035508981   -7.293929590   -1.665483554
     70.0000    1103.856827     937.306301   -6821.096453   -1.115263168   -7.375178091   -1.188363183
     71.0000    1034.664781     493.132264   -6877.954404   -1.190323550   -7.425385111   -0.706225626
     72.0000     961.117766      46.882613   -6905.783738   -1.260377461   -7.444340013   -0.221082913
     73.0000     883.525044    -399.564363   -6904.464835   -1.325132597   -7.431959262    0.265040665
     74.0000     802.212781    -844.329192   -6873.999710   -1.384318110   -7.388286752    0.750116147
     75.0000     717.522722   -1285.538854   -6814.512072   -1.437685642   -7.313493765    1.232117508
     76.0000     629.810814   -1721.334426   -6726.246911   -1.485010299   -7.207878591    1.709029298
     77.0000     539.445773   -2149.878674   -6609.569640   -1.526091575   -7.071865769    2.178854288
     78.0000     446.807590   -2569.363600   -6464.964766   -1.560754200   -6.906004962    2.639621161
     79.0000     352.285994   -2978.017906   -6293.034104   -1.588848931   -6.710969429    3.089392210
     80.0000     256.278871   -3374.114351   -6094.494534   -1.610253276   -6.487554090    3.526271058
     81.0000     159.190638   -3755.976982   -5870.175280   -1.624872134   -6.236673146    3.948410381
     82.0000      61.430579   -4121.988211   -5621.014744   -1.632638359   -5.959357237    4.354019605
     83.0000     -36.588842   -4470.595698   -5348.056863   -1.633513227   -5.656750110    4.741372564
     84.0000    -134.453701   -4800.319027   -5052.447025   -1.627486815   -5.330104782    5.108815080
     85.0000    -231.750348   -5109.756136   -4735.427515   -1.614578257   -4.980779166    5.454772423
     86.0000    -328.067160   -5397.589460   -4398.332540   -1.594835895   -4.610231151    5.777756602
     87.0000    -422.996287   -5662.591772   -4042.582802   -1.568337302   -4.220013129    6.076373449
     88.0000    -516.135413   -5903.631673   -3669.679667   -1.535189162   -3.811765960    6.349329415
     89.0000    -607.089487   -6119.678706   -3281.198933   -1.495527020   -3.387212387    6.595438047
     90.0000    -695.472445   -6309.808056   -2878.784219   -1.449514881   -2.948149910    6.813626055
     91.0000    -780.908909   -6473.204812   -2464.140005   -1.397344652   -2.496443143    7.002938925
     92.0000    -863.035829   -6609.167749   -2039.024351   -1.339235433   -2.034015696    7.162546011
     93.0000    -941.504098   -6717.112616   -1605.241326   -1.275432656   -1.562841606    7.291745042
     94.0000   -1015.980100   -6796.574893   -1164.633184   -1.206207059   -1.084936387    7.389965995
     95.0000   -1086.147192   -6847.212006    -719.072337   -1.131853523   -0.602347746    7.456774289
     96.0000   -1151.707117   -6868.804969    -270.453142   -1.052689752   -0.117146039    7.491873240
     97.0000   -1212.381328   -6861.259456     179.316423   -0.969054821    0.368585473    7.495105776
     98.0000   -1267.912225   -6824.606278     628.323167   -0.881307598    0.852760474    7.466455353
     99.0000   -1318.064292   -6759.001270    1074.657130   -0.789825052    1.333299483    7.406046090
    100.0000   -1362.625128   -6664.724588    1516.420003   -0.695000452    1.808139708    7.314142102
    101.0000   -1401.406373   -6542.179408    1951.733490   -0.597241488    2.275244762    7.191146048
    102.0000   -1434.244511   -6391.890062    2378.747558   -0.496968320    2.732614197    7.037596905
    103.0000   -1461.001560   -6214.499599    2795.648531   -0.394611565    3.178292754    6.854167013
    104.0000   -1481.565640   -6010.766802    3200.666986   -0.290610257    3.610379279    6.641658412
    105.0000   -1495.851410   -5781.562690    3592.085406   -0.185409780    4.027035245    6.400998519
    106.0000   -1503.800394   -5527.866507    3968.245564   -0.079459798    4.426492816    6.133235216
    107.0000   -1505.381173   -5250.761259    4327.555582    0.026787805    4.807062425    5.839531376
    108.0000   -1500.589454   -4951.428797    4668.496658    0.132880961    5.167139822    5.521158916
    109.0000   -1489.448027   -4631.144504    4989.629417    0.238369411    5.505212573    5.179492422
    110.0000   -1472.006591   -4291.271603    5289.599875    0.342806658    5.819865990    4.816002414
    111.0000   -1448.341477   -3933.255130    5567.144979    0.445751855    6.109788496    4.432248314
    112.0000   -1418.555250   -3558.615600    5821.097728    0.546771630    6.373776413    4.029871171
    113.0000   -1382.776209   -3168.942404    6050.391844    0.645441839    6.610738192    3.610586204
    114.0000   -1341.157783   -2765.886968    6254.065999    0.741349244    6.819698097    3.176175195
    115.0000   -1293.877829   -2351.155706    6431.267572    0.834093112    6.999799368    2.728478797
    116.0000   -1241.137832   -1926.502805    6581.255956    0.923286738    7.150306871    2.269388775
    117.0000   -1183.162025   -1493.722852    6703.405385    1.008558881    7.270609278    1.800840220
    118.0000   -1120.196415   -1054.643360    6797.207304    1.089555137    7.360220792    1.324803744
    119.0000   -1052.507738    -611.117188    6862.272261    1.165939224    7.418782436    0.843277693
    120.0000    -980.382332    -165.014910    6898.331348    1.237394199    7.446062944    0.358280367
    121.0000    -904.124944     281.782868    6905.237155    1.303623606    7.441959254   -0.128157733
    122.0000    -824.057466     727.393204    6882.964278    1.364352552    7.406496624   -0.614001641
    123.0000    -740.517613    1169.938516    6831.609351    1.419328721    7.339828387   -1.097219629
    124.0000    -653.857536    1607.554248    6751.390626    1.468323317    7.242235333   -1.575790906
    125.0000    -564.442389    2038.396490    6642.647083    1.511131945    7.114124730   -2.047713285
    126.0000    -472.648836    2460.649531    6505.837086    1.547575425    6.956028976   -2.511010841
    127.0000    -378.863519    2872.533314    6341.536578    1.577500538    6.768603855   -2.963741554
    128.0000    -283.481475    3272.310782    6150.436817    1.600780695    6.552626408   -3.404004914
    129.0000    -186.904523    3658.295073    5933.341658    1.617316537    6.308992377   -3.829949507
    130.0000     -89.539613    4028.856561    5691.164385    1.627036447    6.038713217   -4.239780542
    131.0000       8.202848    4382.429696    5424.924081    1.629896975    5.742912652   -4.631767303
    132.0000     105.910705    4717.519625    5135.741570    1.625883166    5.422822752   -5.004250502
    133.0000     203.171763    5032.708563    4824.834907    1.615008790    5.079779523   -5.355649500
    134.0000     299.575521    5326.661885    4493.514450    1.597316453    4.715217988   -5.684469344
    135.0000     394.714899    5598.133905    4143.177513    1.572877595    4.330666757   -5.989307586
    136.0000     488.187968    5845.973317    3775.302613    1.541792358    3.927742081   -6.268860825
    137.0000     579.599661    6069.128261    3391.443343    1.504189323    3.508141400   -6.521930928
    138.0000     668.563471    6266.650989    2993.221876    1.460225114    3.073636385   -6.747430862
    139.0000     754.703118    6437.702094    2582.322134    1.410083846    2.626065516   -6.944390092
    140.0000     837.654177    6581.554287    2160.482651    1.353976448    2.167326209   -7.111959482
    141.0000     917.065662    6697.595687    1729.489152    1.292139821    1.699366530   -7.249415645
    142.0000     992.601558    6785.332597    1291.166895    1.224835869    1.224176559   -7.356164701
    143.0000    1063.942286    6844.391762     847.372804    1.152350375    0.743779434   -7.431745387
    144.0000    1130.786098    6874.522074     399.987434    1.074991747    0.260222154   -7.475831489
    145.0000    1192.850398    6875.595724     -49.093183    0.993089641   -0.224433802   -7.488233563
    146.0000    1249.872967    6847.608785    -497.965781    0.906993452   -0.708121969   -7.468899926
    147.0000    1301.613100    6790.681224    -944.728133    0.817070706   -1.188780435   -7.417916896
    148.0000    1347.852647    6705.056347   -1387.487318    0.723705349   -1.664361344   -7.335508290
    149.0000    1388.396939    6591.099669   -1824.367942    0.627295957   -2.132840297   -7.222034183
    150.0000    1423.075617    6449.297233   -2253.520251    0.528253876   -2.592225574   -7.077988932
    151.0000    1451.743333    6280.253375   -2673.128112    0.427001302   -3.040567122   -6.903998516
    152.0000    1474.280351    6084.687965   -3081.416817    0.323969335   -3.475965234   -6.700817196
    153.0000    1490.593013    5863.433136   -3476.660661    0.219595993   -3.896578870   -6.469323563
    154.0000    1500.614104    5617.429523   -3857.190265    0.114324235   -4.300633568   -6.210515995
    155.0000    1504.303082    5347.722045   -4221.399622    0.008599974   -4.686428913   -5.925507603
    156.0000    1501.646199    5055.455250   -4567.752808   -0.097129885   -5.052345522   -5.615520692
    157.0000    1492.656504    4741.868257   -4894.790366   -0.202419371   -5.396851521   -5.281880815
    158.0000    1477.373727    4408.289325   -5201.135308   -0.306825344   -5.718508510   -4.926010469
    159.0000    1455.864057    4056.130078   -5485.498738   -0.409909336   -6.015976997   -4.549422486
    160.0000    1428.219806    3686.879423   -5746.685069   -0.511239333   -6.288021309   -4.153713175
    161.0000    1394.558970    3302.097185   -5983.596818   -0.610391500   -6.533513984   -3.740555268
    162.0000    1355.024689    2903.407496   -6195.238981   -0.706951838   -6.751439654   -3.311690705
    163.0000    1309.784608    2492.491965   -6380.722965   -0.800517772   -6.940898446   -2.868923302
    164.0000    1259.030149    2071.082657   -6539.270078   -0.890699671   -7.101108906   -2.414111339
    165.0000    1202.975685    1640.954913   -6670.214574   -0.977122295   -7.231410484   -1.949160084
    166.0000    1141.857639    1203.920026   -6773.006249   -1.059426183   -7.331265588   -1.476014280
    167.0000    1075.933495     761.817819   -6847.212583   -1.137268961   -7.400261235   -0.996650609
    168.0000    1005.480738     316.509121   -6892.520428   -1.210326599   -7.438110318   -0.513070134
    169.0000     930.795713    -130.131812   -6908.737248   -1.278294599   -7.444652501   -0.027290731
    170.0000     852.192422    -576.224920   -6895.791894   -1.340889122   -7.419854750    0.458660493
    171.0000     770.001250   -1019.891990   -6853.734937   -1.397848059   -7.363811517    0.942754797
    172.0000     684.567632   -1459.264296   -6782.738530   -1.448932044   -7.276744565    1.422969427
    173.0000     596.250659   -1892.490229   -6683.095825   -1.493925406   -7.159002435    1.897295255
    174.0000     505.421627   -2317.742877   -6555.219921   -1.532637062   -7.011059545    2.363744446
    175.0000     412.462542   -2733.227540   -6399.642358   -1.564901350   -6.833514908    2.820358151
    176.0000     317.764562   -3137.189157   -6217.011142   -1.590578791   -6.627090443    3.265214218
    177.0000     221.726416   -3527.919620   -6008.088316   -1.609556783   -6.392628863    3.696434911
    178.0000     124.752762   -3903.764949   -5773.747059   -1.621750216   -6.131091116    4.112194627
    179.0000      27.252530   -4263.132292   -5514.968330   -1.627102000   -5.843553349    4.510727583
    180.0000     -70.362780   -4604.496737   -5232.837048   -1.625583503   -5.531203380    4.890335442
    181.0000    -167.680810   -4926.407891   -4928.537816   -1.617194885   -5.195336643    5.249394854
    182.0000    -264.290082   -5227.496202   -4603.350205   -1.601965321   -4.837351600    5.586364851
    183.0000    -359.781742   -5506.478991   -4258.643588   -1.579953105   -4.458744603    5.899794063
    184.0000    -453.751308   -5762.166153   -3895.871557   -1.551245621   -4.061104191    6.188327693
    185.0000    -545.800409   -5993.465505   -3516.565927   -1.515959187   -3.646104840    6.450714193
    186.0000    -635.538512   -6199.387744   -3122.330347   -1.474238746   -3.215500154    6.685811579
    187.0000    -722.584632   -6379.050971   -2714.833552   -1.426257412   -2.771115531    6.892593331
    188.0000    -806.568996   -6531.684769   -2295.802267   -1.372215863   -2.314840329    7.070153800
    189.0000    -887.134685   -6656.633797   -1867.013806   -1.312341581   -1.848619554    7.217713071
    190.0000    -963.939205   -6753.360864   -1430.288401   -1.246887931   -1.374445138    7.334621228
    191.0000   -1036.656018   -6821.449478    -987.481286   -1.176133095   -0.894346846    7.420361955
